#
# MD time (ps), CV #1
#
      0.0000     6.2315682062
      0.0020     6.2347617580
      0.0040     6.2379473967
      0.0060     6.2411195851
      0.0080     6.2443295231
      0.0100     6.2476297632
      0.0120     6.2510075610
      0.0140     6.2543486783
      0.0160     6.2574408389
      0.0180     6.2600066823
      0.0200     6.2617624860
      0.0220     6.2625170454
      0.0240     6.2622832400
      0.0260     6.2613195092
      0.0280     6.2600592256
      0.0300     6.2589659606
      0.0320     6.2583782961
      0.0340     6.2584094753
      0.0360     6.2589505766
      0.0380     6.2597745584
      0.0400     6.2606763953
      0.0420     6.2615619399
      0.0440     6.2624499204
      0.0460     6.2634235466
      0.0480     6.2645773588
      0.0500     6.2659629775
      0.0520     6.2675323977
      0.0540     6.2691234016
      0.0560     6.2705061174
      0.0580     6.2714550731
      0.0600     6.2718329932
      0.0620     6.2716518573
      0.0640     6.2710638117
      0.0660     6.2702890132
      0.0680     6.2695389265
      0.0700     6.2689679123
      0.0720     6.2686631512
      0.0740     6.2686621444
      0.0760     6.2689583041
      0.0780     6.2694891149
      0.0800     6.2701404933
      0.0820     6.2707733857
      0.0840     6.2712379298
      0.0860     6.2713725147
      0.0880     6.2710398453
      0.0900     6.2702009119
      0.0920     6.2689408876
      0.0940     6.2674324971
      0.0960     6.2658973749
      0.0980     6.2645817517
