#
# MD time (ps), CV #1
#
      0.0000     6.2315682062
      0.0020     6.2347619890
      0.0040     6.2379480543
      0.0060     6.2411208194
      0.0080     6.2443314373
      0.0100     6.2476324184
      0.0120     6.2510109853
      0.0140     6.2543528766
      0.0160     6.2574458018
      0.0180     6.2600123919
      0.0200     6.2617689190
      0.0220     6.2625241746
      0.0240     6.2622910357
      0.0260     6.2613279421
      0.0280     6.2600682704
      0.0300     6.2589755999
      0.0320     6.2583885206
      0.0340     6.2584202819
      0.0360     6.2589619635
      0.0380     6.2597865215
      0.0400     6.2606889264
      0.0420     6.2615750265
      0.0440     6.2624635457
      0.0460     6.2634376892
      0.0480     6.2645919928
      0.0500     6.2659780715
      0.0520     6.2675479138
      0.0540     6.2691392933
      0.0560     6.2705223291
      0.0580     6.2714715411
      0.0600     6.2718496495
      0.0620     6.2716686363
      0.0640     6.2710806558
      0.0660     6.2703058774
      0.0680     6.2695557788
      0.0700     6.2689847306
      0.0720     6.2686799200
      0.0740     6.2686788507
      0.0760     6.2689749336
      0.0780     6.2695056472
      0.0800     6.2701568988
      0.0820     6.2707896278
      0.0840     6.2712539702
      0.0860     6.2713883205
      0.0880     6.2710553926
      0.0900     6.2702161870
      0.0920     6.2689558881
      0.0940     6.2674472338
      0.0960     6.2659118709
      0.0980     6.2645960377
