# = NFE%PMD ==================================================================
#   << anchor(1) : position = 0.000000, 6.000000, 6.000000, 12.000000
#                  strength = 10.000000, 10.000000 >>
# -----------------------------------------------------------------------------
# MD time (ps), CV(1:1)
# =============================================================================
      0.0000       6.23156821
      0.0020       6.23475192
      0.0040       6.23791833
      0.0060       6.24106283
      0.0080       6.24423772
      0.0100       6.24749659
      0.0120       6.25082738
      0.0140       6.25411619
      0.0160       6.25715079
      0.0180       6.25965370
      0.0200       6.26134117
      0.0220       6.26202214
      0.0240       6.26170986
      0.0260       6.26066333
      0.0280       6.25931648
      0.0300       6.25813329
      0.0320       6.25745260
      0.0340       6.25738785
      0.0360       6.25783025
      0.0380       6.25855293
      0.0400       6.25935108
      0.0420       6.26013076
      0.0440       6.26091098
      0.0460       6.26177516
      0.0480       6.26281799
      0.0500       6.26409104
      0.0520       6.26554617
      0.0540       6.26702101
      0.0560       6.26828570
      0.0580       6.26911495
      0.0600       6.26937173
      0.0620       6.26906814
      0.0640       6.26835647
      0.0660       6.26745687
      0.0680       6.26658083
      0.0700       6.26588275
      0.0720       6.26544990
      0.0740       6.26531987
      0.0760       6.26548637
      0.0780       6.26588749
      0.0800       6.26641014
      0.0820       6.26691617
      0.0840       6.26725609
      0.0860       6.26726789
      0.0880       6.26681330
      0.0900       6.26585186
      0.0920       6.26446715
      0.0940       6.26283070
      0.0960       6.26116392
      0.0980       6.25971400
