#
# MD time (ps), CV, handle_position, spring_constant, work
#
      0.0000      -4.95870016      -5.00000000     100.00000000       0.00000000
      0.0020      -4.96094618      -4.99400000     100.00000000      -0.02230610
      0.0040      -4.96445693      -4.98800000     100.00000000      -0.03928516
      0.0060      -4.96750350      -4.98200000     100.00000000      -0.05069703
      0.0080      -4.96857068      -4.97600000     100.00000000      -0.05727478
      0.0100      -4.96712288      -4.97000000     100.00000000      -0.06036671
      0.0120      -4.96368854      -4.96400000     100.00000000      -0.06132328
      0.0140      -4.95949363      -4.95800000     100.00000000      -0.06096863
      0.0160      -4.95589823      -4.95200000     100.00000000      -0.05935108
      0.0180      -4.95372243      -4.94600000     100.00000000      -0.05586488
      0.0200      -4.95284299      -4.94000000     100.00000000      -0.04969525
      0.0220      -4.95246312      -4.93400000     100.00000000      -0.04030342
      0.0240      -4.95171239      -4.92800000     100.00000000      -0.02765077
      0.0260      -4.94990468      -4.92200000     100.00000000      -0.01216565
      0.0280      -4.94647586      -4.91600000     100.00000000       0.00534851
      0.0300      -4.94099515      -4.91000000     100.00000000       0.02378981
      0.0320      -4.93331860      -4.90400000     100.00000000       0.04188394
      0.0340      -4.92380195      -4.89800000     100.00000000       0.05842010
      0.0360      -4.91342819      -4.89200000     100.00000000       0.07258915
      0.0380      -4.90362184      -4.88600000     100.00000000       0.08430416
      0.0400      -4.89568755      -4.88000000     100.00000000       0.09429697
      0.0420      -4.89012921      -4.87400000     100.00000000       0.10384200
      0.0440      -4.88628788      -4.86800000     100.00000000       0.11416713
      0.0460      -4.88269314      -4.86200000     100.00000000       0.12586143
      0.0480      -4.87809509      -4.85600000     100.00000000       0.13869790
      0.0500      -4.87241237      -4.85000000     100.00000000       0.15205014
      0.0520      -4.86676910      -4.84400000     100.00000000       0.16560458
      0.0540      -4.86259498      -4.83800000     100.00000000       0.17981380
      0.0560      -4.86048681      -4.83200000     100.00000000       0.19573834
      0.0580      -4.85983438      -4.82600000     100.00000000       0.21443469
      0.0600      -4.85966696      -4.82000000     100.00000000       0.23648510
      0.0620      -4.85973017      -4.81400000     100.00000000       0.26210424
      0.0640      -4.86037522      -4.80800000     100.00000000       0.29153586
      0.0660      -4.86147124      -4.80200000     100.00000000       0.32508980
      0.0680      -4.86190488      -4.79600000     100.00000000       0.36270263
      0.0700      -4.86038773      -4.79000000     100.00000000       0.40359041
      0.0720      -4.85672498      -4.78400000     100.00000000       0.44652423
      0.0740      -4.85234448      -4.77800000     100.00000000       0.49064506
      0.0760      -4.84959755      -4.77200000     100.00000000       0.53622767
      0.0780      -4.85029921      -4.76600000     100.00000000       0.58479670
      0.0800      -4.85466420      -4.76000000     100.00000000       0.63848572
      0.0820      -4.86143245      -4.75400000     100.00000000       0.69911472
      0.0840      -4.86873604      -4.74800000     100.00000000       0.76756527
      0.0860      -4.87481487      -4.74200000     100.00000000       0.84363054
      0.0880      -4.87839663      -4.73600000     100.00000000       0.92619399
      0.0900      -4.87898059      -4.73000000     100.00000000       1.01360716
      0.0920      -4.87698934      -4.72400000     100.00000000       1.10419814
      0.0940      -4.87370374      -4.71800000     100.00000000       1.19680606
      0.0960      -4.87099656      -4.71200000     100.00000000       1.29121615
      0.0980      -4.87070859      -4.70600000     100.00000000       1.38832770
      0.1000      -4.87373476      -4.70000000     100.00000000       1.48986070
      0.1020      -4.87958308      -4.69400000     100.00000000       1.59765605
      0.1040      -4.88686971      -4.68800000     100.00000000       1.71299189
      0.1060      -4.89413984      -4.68200000     100.00000000       1.83629476
      0.1080      -4.90034431      -4.67600000     100.00000000       1.96724000
      0.1100      -4.90493030      -4.67000000     100.00000000       2.10502239
      0.1120      -4.90775607      -4.66400000     100.00000000       2.24862830
      0.1140      -4.90895657      -4.65800000     100.00000000       2.39704209
      0.1160      -4.90876177      -4.65200000     100.00000000       2.54935759
      0.1180      -4.90725954      -4.64600000     100.00000000       2.70476398
      0.1200      -4.90420461      -4.64000000     100.00000000       2.86240323
      0.1220      -4.89899336      -4.63400000     100.00000000       3.02116262
      0.1240      -4.89081284      -4.62800000     100.00000000       3.17950448
      0.1260      -4.87893687      -4.62200000     100.00000000       3.33542940
      0.1280      -4.86317584      -4.61600000     100.00000000       3.48666321
      0.1300      -4.84434521      -4.61000000     100.00000000       3.63111952
      0.1320      -4.82440403      -4.60400000     100.00000000       3.76754429
      0.1340      -4.80599546      -4.59800000     100.00000000       3.89606414
      0.1360      -4.79155934      -4.59200000     100.00000000       4.01833058
      0.1380      -4.78256352      -4.58600000     100.00000000       4.13716744
      0.1400      -4.77932987      -4.58000000     100.00000000       4.25593546
      0.1420      -4.78137466      -4.57400000     100.00000000       4.37794682
      0.1440      -4.78776473      -4.56800000     100.00000000       4.50608863
      0.1460      -4.79726608      -4.56200000     100.00000000       4.64259788
      0.1480      -4.80846490      -4.55600000     100.00000000       4.78891717
      0.1500      -4.82003070      -4.55000000     100.00000000       4.94566585
      0.1520      -4.83096059      -4.54400000     100.00000000       5.11276323
      0.1540      -4.84051918      -4.53800000     100.00000000       5.28960716
      0.1560      -4.84808676      -4.53200000     100.00000000       5.47518895
      0.1580      -4.85338555      -4.52600000     100.00000000       5.66823064
      0.1600      -4.85665210      -4.52000000     100.00000000       5.86744194
      0.1620      -4.85803091      -4.51400000     100.00000000       6.07164684
      0.1640      -4.85683758      -4.50800000     100.00000000       6.27950739
      0.1660      -4.85161937      -4.50200000     100.00000000       6.48904447
      0.1680      -4.84078705      -4.49600000     100.00000000       6.69736640
      0.1700      -4.82337868      -4.49000000     100.00000000       6.90081612
      0.1720      -4.79989907      -4.48400000     100.00000000       7.09559944
      0.1740      -4.77301167      -4.47800000     100.00000000       7.27887266
      0.1760      -4.74740603      -4.47200000     100.00000000       7.44999797
      0.1780      -4.72813842      -4.46600000     100.00000000       7.61126130
      0.1800      -4.71803875      -4.46000000     100.00000000       7.76731446
      0.1820      -4.71634549      -4.45400000     100.00000000       7.92342973
      0.1840      -4.71969417      -4.44800000     100.00000000       8.08364163
      0.1860      -4.72414521      -4.44200000     100.00000000       8.24979344
      0.1880      -4.72666225      -4.43600000     100.00000000       8.42163568
      0.1900      -4.72577970      -4.43000000     100.00000000       8.59756827
      0.1920      -4.72167655      -4.42400000     100.00000000       8.77560514
      0.1940      -4.71558301      -4.41800000     100.00000000       8.95418301
      0.1960      -4.70872406      -4.41200000     100.00000000       9.13247513
      0.1980      -4.70169611      -4.40600000     100.00000000       9.31020118
      0.2000      -4.69469315      -4.40000000     100.00000000       9.48731796
      0.2020      -4.68785936      -4.39400000     100.00000000       9.66388371
      0.2040      -4.68111559      -4.38800000     100.00000000       9.83997620
      0.2060      -4.67374400      -4.38200000     100.00000000      10.01543407
      0.2080      -4.66457017      -4.37600000     100.00000000      10.18952833
      0.2100      -4.65302239      -4.37000000     100.00000000      10.36100610
      0.2120      -4.64014759      -4.36400000     100.00000000      10.52875709
      0.2140      -4.62832277      -4.35800000     100.00000000      10.69269820
      0.2160      -4.61976109      -4.35200000     100.00000000      10.85412335
      0.2180      -4.61552925      -4.34600000     100.00000000      11.01531046
      0.2200      -4.61581944      -4.34000000     100.00000000      11.17891506
      0.2220      -4.62026555      -4.33400000     100.00000000      11.34754056
      0.2240      -4.62756124      -4.32800000     100.00000000      11.52328859
      0.2260      -4.63492404      -4.32200000     100.00000000      11.70703418
      0.2280      -4.63832248      -4.31600000     100.00000000      11.89760813
      0.2300      -4.63398650      -4.31000000     100.00000000      12.09150083
      0.2320      -4.62025840      -4.30400000     100.00000000      12.28357430
      0.2340      -4.59813281      -4.29800000     100.00000000      12.46849166
      0.2360      -4.57030996      -4.29200000     100.00000000      12.64202449
      0.2380      -4.53985062      -4.28600000     100.00000000      12.80167267
      0.2400      -4.50932483      -4.28000000     100.00000000      12.94662530
      0.2420      -4.48065956      -4.27400000     100.00000000      13.07742062
      0.2440      -4.45546813      -4.26800000     100.00000000      13.19565893
      0.2460      -4.43543783      -4.26200000     100.00000000      13.30393072
      0.2480      -4.42220656      -4.25600000     100.00000000      13.40582404
      0.2500      -4.41665854      -4.25000000     100.00000000      13.50568357
      0.2520      -4.41845113      -4.24400000     100.00000000      13.60801647
      0.2540      -4.42623403      -4.23800000     100.00000000      13.71682202
      0.2560      -4.43796933      -4.23200000     100.00000000      13.83508303
      0.2580      -4.45099750      -4.22600000     100.00000000      13.96437308
      0.2600      -4.46229444      -4.22000000     100.00000000      14.10456066
      0.2620      -4.46911397      -4.21400000     100.00000000      14.25378319
      0.2640      -4.46966621      -4.20800000     100.00000000      14.40881724
      0.2660      -4.46364785      -4.20200000     100.00000000      14.56581146
      0.2680      -4.45256094      -4.19600000     100.00000000      14.72127410
      0.2700      -4.43940764      -4.19000000     100.00000000      14.87306467
      0.2720      -4.42757556      -4.18400000     100.00000000      15.02095963
      0.2740      -4.41963469      -4.17800000     100.00000000      15.16652271
      0.2760      -4.41686018      -4.17200000     100.00000000      15.31247117
      0.2780      -4.41935859      -4.16600000     100.00000000      15.46193680
      0.2800      -4.42632413      -4.16000000     100.00000000      15.61784162
      0.2820      -4.43626180      -4.15400000     100.00000000      15.78241740
      0.2840      -4.44706318      -4.14800000     100.00000000      15.95681489
      0.2860      -4.45598294      -4.14200000     100.00000000      16.14072873
      0.2880      -4.46000273      -4.13600000     100.00000000      16.33212443
      0.2900      -4.45676442      -4.13000000     100.00000000      16.52735457
      0.2920      -4.44536154      -4.12400000     100.00000000      16.72179236
      0.2940      -4.42631149      -4.11800000     100.00000000      16.91069427
      0.2960      -4.40085737      -4.11200000     100.00000000      17.08984493
      0.2980      -4.37017316      -4.10600000     100.00000000      17.25575408
      0.3000      -4.33499759      -4.10000000     100.00000000      17.40550531
      0.3020      -4.29588518      -4.09400000     100.00000000      17.53657013
      0.3040      -4.25382068      -4.08800000     100.00000000      17.64688189
      0.3060      -4.21079886      -4.08200000     100.00000000      17.73526775
      0.3080      -4.17017347      -4.07600000     100.00000000      17.80215945
      0.3100      -4.13663461      -4.07000000     100.00000000      17.85040188
      0.3120      -4.11546056      -4.06400000     100.00000000      17.88583043
      0.3140      -4.11079200      -4.05800000     100.00000000      17.91710620
      0.3160      -4.12347752      -4.05200000     100.00000000      17.95438705
      0.3180      -4.15010746      -4.04600000     100.00000000      18.00706254
      0.3200      -4.18434323      -4.04000000     100.00000000      18.08159775
      0.3220      -4.21940062      -4.03400000     100.00000000      18.18052091
      0.3240      -4.24977058      -4.02800000     100.00000000      18.30267227
      0.3260      -4.27168570      -4.02200000     100.00000000      18.44410915
      0.3280      -4.28301386      -4.01600000     100.00000000      18.59911902
      0.3300      -4.28313855      -4.01000000     100.00000000      18.76116474
      0.3320      -4.27292584      -4.00400000     100.00000000      18.92378406
      0.3340      -4.25479658      -4.00000000     100.00000000      19.02852854
      0.3360      -4.23283124      -4.00000000     100.00000000      19.02852854
      0.3380      -4.21234262      -4.00000000     100.00000000      19.02852854
      0.3400      -4.19846235      -4.00000000     100.00000000      19.02852854
      0.3420      -4.19474146      -4.00000000     100.00000000      19.02852854
      0.3440      -4.20173709      -4.00000000     100.00000000      19.02852854
      0.3460      -4.21613285      -4.00000000     100.00000000      19.02852854
      0.3480      -4.23157656      -4.00000000     100.00000000      19.02852854
      0.3500      -4.24149628      -4.00000000     100.00000000      19.02852854
      0.3520      -4.24219600      -4.00000000     100.00000000      19.02852854
      0.3540      -4.23424805      -4.00000000     100.00000000      19.02852854
      0.3560      -4.22173919      -4.00000000     100.00000000      19.02852854
      0.3580      -4.21015253      -4.00000000     100.00000000      19.02852854
      0.3600      -4.20398500      -4.00000000     100.00000000      19.02852854
      0.3620      -4.20501675      -4.00000000     100.00000000      19.02852854
      0.3640      -4.21178684      -4.00000000     100.00000000      19.02852854
      0.3660      -4.22040289      -4.00000000     100.00000000      19.02852854
      0.3680      -4.22624818      -4.00000000     100.00000000      19.02852854
      0.3700      -4.22574451      -4.00000000     100.00000000      19.02852854
      0.3720      -4.21747127      -4.00000000     100.00000000      19.02852854
      0.3740      -4.20248665      -4.00000000     100.00000000      19.02852854
      0.3760      -4.18399288      -4.00000000     100.00000000      19.02852854
      0.3780      -4.16641598      -4.00000000     100.00000000      19.02852854
      0.3800      -4.15414822      -4.00000000     100.00000000      19.02852854
      0.3820      -4.15054048      -4.00000000     100.00000000      19.02852854
      0.3840      -4.15731451      -4.00000000     100.00000000      19.02852854
      0.3860      -4.17392308      -4.00000000     100.00000000      19.02852854
      0.3880      -4.19693599      -4.00000000     100.00000000      19.02852854
      0.3900      -4.22044583      -4.00000000     100.00000000      19.02852854
      0.3920      -4.23803420      -4.00000000     100.00000000      19.02852854
      0.3940      -4.24532366      -4.00000000     100.00000000      19.02852854
      0.3960      -4.24163184      -4.00000000     100.00000000      19.02852854
      0.3980      -4.23015002      -4.00000000     100.00000000      19.02852854
      0.4000      -4.21669882      -4.00000000     100.00000000      19.02852854
      0.4020      -4.20721803      -4.00000000     100.00000000      19.02852854
      0.4040      -4.20510494      -4.00000000     100.00000000      19.02852854
      0.4060      -4.21036215      -4.00000000     100.00000000      19.02852854
      0.4080      -4.22086781      -4.00000000     100.00000000      19.02852854
      0.4100      -4.23393799      -4.00000000     100.00000000      19.02852854
      0.4120      -4.24696491      -4.00000000     100.00000000      19.02852854
      0.4140      -4.25749745      -4.00000000     100.00000000      19.02852854
      0.4160      -4.26331614      -4.00000000     100.00000000      19.02852854
      0.4180      -4.26254648      -4.00000000     100.00000000      19.02852854
      0.4200      -4.25380118      -4.00000000     100.00000000      19.02852854
      0.4220      -4.23656211      -4.00000000     100.00000000      19.02852854
      0.4240      -4.21177075      -4.00000000     100.00000000      19.02852854
      0.4260      -4.18206499      -4.00000000     100.00000000      19.02852854
      0.4280      -4.15111153      -4.00000000     100.00000000      19.02852854
      0.4300      -4.12222882      -4.00000000     100.00000000      19.02852854
      0.4320      -4.09739496      -4.00000000     100.00000000      19.02852854
      0.4340      -4.07770103      -4.00000000     100.00000000      19.02852854
      0.4360      -4.06487121      -4.00000000     100.00000000      19.02852854
      0.4380      -4.06206941      -4.00000000     100.00000000      19.02852854
      0.4400      -4.07253635      -4.00000000     100.00000000      19.02852854
      0.4420      -4.09681349      -4.00000000     100.00000000      19.02852854
      0.4440      -4.13145193      -4.00000000     100.00000000      19.02852854
      0.4460      -4.17066844      -4.00000000     100.00000000      19.02852854
      0.4480      -4.20891538      -4.00000000     100.00000000      19.02852854
      0.4500      -4.24225983      -4.00000000     100.00000000      19.02852854
      0.4520      -4.26862921      -4.00000000     100.00000000      19.02852854
      0.4540      -4.28743731      -4.00000000     100.00000000      19.02852854
      0.4560      -4.29873853      -4.00000000     100.00000000      19.02852854
      0.4580      -4.30232881      -4.00000000     100.00000000      19.02852854
      0.4600      -4.29739477      -4.00000000     100.00000000      19.02852854
      0.4620      -4.28301637      -4.00000000     100.00000000      19.02852854
      0.4640      -4.25937875      -4.00000000     100.00000000      19.02852854
      0.4660      -4.22890837      -4.00000000     100.00000000      19.02852854
      0.4680      -4.19600928      -4.00000000     100.00000000      19.02852854
      0.4700      -4.16503803      -4.00000000     100.00000000      19.02852854
      0.4720      -4.13854838      -4.00000000     100.00000000      19.02852854
      0.4740      -4.11782839      -4.00000000     100.00000000      19.02852854
      0.4760      -4.10439887      -4.00000000     100.00000000      19.02852854
      0.4780      -4.10005796      -4.00000000     100.00000000      19.02852854
      0.4800      -4.10528896      -4.00000000     100.00000000      19.02852854
      0.4820      -4.11750538      -4.00000000     100.00000000      19.02852854
      0.4840      -4.13105422      -4.00000000     100.00000000      19.02852854
      0.4860      -4.13971258      -4.00000000     100.00000000      19.02852854
      0.4880      -4.13980970      -4.00000000     100.00000000      19.02852854
      0.4900      -4.13159325      -4.00000000     100.00000000      19.02852854
