#
# MD time (ps), CV #1, E_{bias} (kcal/mol)
#
      0.0000     6.3326525075     0.0000000000
      0.0020     6.3339929522     0.0031227990
      0.0040     6.3354613346     0.0062651425
      0.0060     6.3369258911     0.0094254922
      0.0080     6.3382156658     0.0125946275
      0.0100     6.3391901557     0.0157575679
      0.0120     6.3397781455     0.0188979561
      0.0140     6.3399687373     0.0220015735
      0.0160     6.3397807905     0.0250577888
      0.0180     6.3392343678     0.0280591670
      0.0200     6.3383381420     0.0310001462
      0.0220     6.3371020285     0.0359041131
      0.0240     6.3355758048     0.0406833674
      0.0260     6.3338826497     0.0453470719
      0.0280     6.3322125135     0.0499249761
      0.0300     6.3307885394     0.0544695374
      0.0320     6.3298234691     0.0590512025
      0.0340     6.3294663377     0.0637430681
      0.0360     6.3297454543     0.0685942936
      0.0380     6.3305301812     0.0736004312
      0.0400     6.3315335408     0.0786837842
      0.0420     6.3323727332     0.0858769327
      0.0440     6.3326804452     0.0928407438
      0.0460     6.3322222242     0.0994590452
      0.0480     6.3309581316     0.1056878532
      0.0500     6.3290228850     0.1115551961
      0.0520     6.3266686138     0.1171486562
      0.0540     6.3242147054     0.1226051099
      0.0560     6.3219850268     0.1280877859
      0.0580     6.3202104799     0.1337340743
      0.0600     6.3189384215     0.1395948567
      0.0620     6.3180245288     0.1469979957
      0.0640     6.3172249701     0.1544578842
      0.0660     6.3163222227     0.1618531820
      0.0680     6.3152149116     0.1691244333
      0.0700     6.3139484328     0.1762937536
      0.0720     6.3126829925     0.1834510557
      0.0740     6.3116184574     0.1907144702
      0.0760     6.3109134075     0.1981825794
      0.0780     6.3106230201     0.2058933505
      0.0800     6.3106631737     0.2137987948
      0.0820     6.3108199198     0.2217707926
      0.0840     6.3108267730     0.2296499758
      0.0860     6.3104907142     0.2373207452
      0.0880     6.3097859955     0.2447644997
      0.0900     6.3088538427     0.2520610536
      0.0920     6.3079240669     0.2593479747
      0.0940     6.3072124479     0.2667616296
      0.0960     6.3068406991     0.2743838964
      0.0980     6.3068044038     0.2822156388
